# OMEL TS Au,2013.09.07, 250nm Au film TS from Si/SiO2, measured by Sriharsha
#Wavelength (nm)	n	k
400	1.6493	1.9543
405	1.6439	1.9559
410	1.6377	1.9549
415	1.6296	1.9531
420	1.6212	1.9494
425	1.6102	1.9451
430	1.5983	1.938
435	1.5842	1.9305
440	1.5684	1.9202
445	1.5487	1.9065
450	1.525	1.8905
455	1.4962	1.8728
460	1.4635	1.8537
465	1.4228	1.8322
470	1.3751	1.8094
475	1.3181	1.7868
480	1.2453	1.7664
485	1.1581	1.7537
490	1.0588	1.755
495	0.95675	1.7752
500	0.85045	1.8173
505	0.75531	1.877
510	0.67157	1.9496
515	0.60221	2.0288
520	0.54398	2.1099
525	0.49641	2.1908
530	0.45609	2.2706
535	0.42255	2.3483
540	0.39317	2.4234
545	0.36786	2.4957
550	0.34512	2.5664
555	0.32576	2.6353
560	0.30772	2.7029
565	0.29201	2.7678
570	0.2774	2.8323
575	0.26488	2.8948
580	0.25273	2.9561
585	0.24201	3.0166
590	0.23218	3.0757
595	0.22283	3.1335
600	0.21437	3.1912
605	0.20653	3.2476
610	0.19934	3.3033
615	0.19261	3.3584
620	0.186	3.4132
625	0.18055	3.4661
630	0.17424	3.5197
635	0.16888	3.5725
640	0.16353	3.6249
645	0.15865	3.677
650	0.15468	3.7282
655	0.15061	3.7794
660	0.14699	3.83
665	0.14299	3.8808
670	0.13982	3.9307
675	0.13719	3.9817
680	0.13412	4.0317
685	0.13179	4.082
690	0.13064	4.1307
695	0.12933	4.1801
700	0.12883	4.2287
705	0.12814	4.2761
710	0.12807	4.3247
715	0.12713	4.3714
720	0.12726	4.4173
725	0.12748	4.4639
730	0.12729	4.5109
735	0.12657	4.5568
740	0.12775	4.6021
745	0.1271	4.6461
750	0.12809	4.6907
755	0.12789	4.7359
760	0.12859	4.7799
765	0.12832	4.824
770	0.12907	4.8675
775	0.12912	4.9117
780	0.12974	4.9544
785	0.12942	5.0008
790	0.13035	5.0423
795	0.12956	5.0867
800	0.131	5.1279
805	0.13161	5.1712
810	0.13222	5.2147
815	0.13249	5.2586
820	0.13328	5.3027
825	0.13286	5.3399
830	0.13484	5.3812
835	0.13427	5.4233
840	0.13514	5.4678
845	0.13651	5.5119
850	0.13742	5.5571
855	0.13652	5.6019
860	0.1379	5.6415
865	0.13784	5.6841
870	0.13805	5.7242
875	0.13885	5.769
880	0.1388	5.8074
885	0.14073	5.8449
890	0.14072	5.8868
895	0.14056	5.9274
900	0.14261	5.969
905	0.14235	6.0093
910	0.14391	6.0517
915	0.14287	6.0901
920	0.14514	6.1321
925	0.14631	6.1713
930	0.14733	6.2123
935	0.14681	6.2548
940	0.14828	6.2936
945	0.14787	6.3346
950	0.14971	6.3746
955	0.14908	6.4168
960	0.15136	6.4561
965	0.15129	6.5001
970	0.15214	6.5359
975	0.15409	6.5756
980	0.15312	6.6117
985	0.15448	6.6563
990	0.15584	6.695
995	0.15612	6.7325
1000	0.15862	6.7727
